0.602083
0.581250
0.559896
0.522917
0.496354
0.488542
0.499479
0.518229
0.517188
0.529167
0.531771
0.528125
0.521875
0.500000
0.502083
0.497917
0.485938
0.474479
0.499479
0.494792
0.510417
0.512500
0.494792
0.499479
0.509375
0.515625
0.527083
0.516146
0.494792
0.513021
0.507292
0.511979
0.507292
0.493750
0.483854
0.471875
0.492708
0.485938
0.493750
0.501563
0.511979
0.512500
0.517188
0.492188
0.504167
0.495833
0.483333
0.508333
0.502604
0.514062
0.515625
0.497396
0.509896
0.507292
0.495833
0.506771
0.483333
0.489583
0.478125
0.470833
0.463021
0.483854
0.475000
0.482292
0.486979
0.488021
0.488021
0.485417
0.472917
0.479687
0.462500
0.467187
0.461979
0.457813
0.480208
0.477604
0.487500
0.487500
0.485938
0.486979
0.483333
0.476042
0.467708
0.481771
0.463021
0.467708
0.464062
0.478646
0.476042
0.478646
0.481771
0.481250
0.477083
0.485938
0.470833
0.477083
0.480729
0.481250
0.483333
0.471875
0.474479
0.478125
0.464583
0.475521
0.482292
0.487500
0.484896
0.494792
0.502083
0.507812
0.489583
0.492708
0.500521
0.502083
0.506771
0.502604
0.499479
0.495833
0.480729
0.478125
0.468229
0.488021
0.481250
0.486458
0.485938
0.482292
0.498958
0.508854
0.520833
0.525000
0.522917
0.516667
0.505208
0.517188
0.516146
0.514583
0.491146
0.480208
0.504687
0.475000
0.477604
0.475521
0.467708
0.468750
0.495312
0.504167
0.521875
0.536458
0.542188
0.535417
0.535417
0.519271
0.496354
0.482292
0.501563
0.492188
0.497396
0.499479
0.496875
0.490625
0.495312
0.491667
0.494271
0.493229
0.481771
0.482292
0.494792
0.492708
0.501042
0.493229
0.485938
0.471354
0.464583
0.482292
0.459375
0.458854
0.477604
0.473438
0.481771
0.493229
0.494271
0.495833
0.484896
0.488021
0.491146
0.491146
0.493229
0.486458
0.485938
0.482812
0.469792
0.481771
0.463542
0.470313
0.471875
0.481771
0.497396
0.506250
0.515104
0.510417
0.504167
0.492188
0.505729
0.506250
0.509896
0.498958
0.500521
0.481771
0.490625
0.493229
0.480208
0.488021
0.488021
0.490104
0.497396
0.485938
0.483333
0.490625
0.496875
0.495312
0.489583
0.496875
0.500000
0.496875
0.494271
0.494271
0.490625
0.485417
0.483333
0.480729
0.470313
0.466667
0.463021
0.475521
0.486458
0.509375
0.522396
0.520312
0.515104
0.517708
0.523958
0.525521
0.517708
0.494271
0.512500
0.500000
0.499479
0.493750
0.489583
0.484896
0.479167
0.477604
0.476042
0.476042
0.484896
0.484375
0.479687
0.500000
0.528646
0.560937
0.568229
0.542708
0.525000
0.534375
0.501042
0.491146
0.513542
0.509896
0.518750
0.510417
0.513542
0.512500
0.515104
0.493750
0.481771
0.492708
0.496354
0.488021
0.493750
0.497917
0.500000
0.501563
0.500000
0.496875
0.473958
0.468750
0.486979
0.478646
0.466146
0.461458
0.457813
0.474479
0.466667
0.470313
0.473438
0.476562
0.479167
0.481250
0.461458
0.471875
0.471354
0.472396
0.476042
0.472396
0.481771
0.475000
0.481771
0.471875
0.475521
0.470833
0.474479
0.469271
0.470313
0.465104
0.466667
0.468750
0.469792
0.454688
0.464583
0.461979
0.464583
0.470313
0.469271
0.468229
0.453125
0.463021
0.463021
0.470313
0.480208
0.478125
0.473958
0.482812
0.473958
0.461458
0.455208
0.455208
0.466146
0.466667
0.451042
0.448958
0.446875
0.465104
0.461458
0.468750
0.469792
0.470833
0.469792
0.467187
0.466667
0.466667
0.460417
0.463021
0.463021
0.462500
0.469792
0.471875
0.474479
0.461458
0.467187
0.472917
0.481771
0.492708
0.502604
0.500000
0.497917
0.492708
0.486458
0.484896
0.483333
0.491146
0.490104
0.491146
0.475521
0.471875
0.472917
0.472396
0.478125
0.475000
0.482292
0.493750
0.501563
0.505729
0.491146
0.492708
0.494271
0.485417
0.496875
0.487500
0.489063
0.494271
0.499479
0.503125
0.493229
0.493229
0.496354
0.491667
0.480208
0.480729
0.478646
0.481250
0.488021
0.492188
0.496354
0.481771
0.482292
0.484896
0.488021
0.494792
0.502083
0.505729
0.498437
0.472396
0.468229
0.477083
0.481250
0.490625
0.499479
0.501563
0.501563
0.498437
0.477083
0.483333
0.485938
0.487500
0.488021
0.489583
0.486458
0.472396
0.473958
0.478646
0.479167
0.485938
0.488021
0.485417
0.491667
0.490625
0.490625
0.482292
0.479167
0.478646
0.479687
0.480729
0.478646
0.482292
0.472396
0.477083
0.462500
0.468229
0.475521
0.486979
0.483333
0.486979
0.495312
0.498958
0.501563
0.503646
0.501042
0.493229
0.489583
0.475000
0.478125
0.473958
0.470313
0.476562
0.479687
0.486458
0.483333
0.478646
0.504687
0.520312
0.536979
0.529167
0.510938
0.530208
0.527604
0.527604
0.505729
0.512500
0.507812
0.490625
0.494792
0.496875
0.500000
0.505208
0.504687
0.498958
0.495312
0.491667
0.489063
0.473958
0.481771
0.480208
0.493229
0.505208
0.495833
0.501563
0.511458
0.531771
0.542188
0.544271
0.539583
0.529167
0.501563
0.490104
0.511458
0.504687
0.515625
0.510938
0.510417
0.504687
0.489583
0.478646
0.473958
0.483854
0.479687
0.485417
0.495833
0.509896
0.514583
0.519792
0.522396
0.525000
0.516667
0.511979
0.502083
0.489583
0.497396
0.497396
0.500521
0.496354
0.489063
0.489063
0.484375
0.466146
0.476562
0.475000
0.485417
0.502083
0.514583
0.510938
0.499479
0.494271
0.502604
0.512500
0.510938
0.515104
0.507292
0.485417
0.491146
0.493229
0.488542
0.487500
0.488021
0.489063
0.489063
0.492188
0.480729
0.491146
0.477604
0.486458
0.495312
0.508854
0.520312
0.522396
0.518750
0.509896
0.495312
0.497396
0.501042
0.498958
0.502604
0.482292
0.492188
0.481771
0.496354
0.504167
0.509896
0.512500
0.509896
0.506250
0.509375
0.496354
0.497917
0.491667
0.491667
0.476562
0.480208
0.473438
0.477083
0.469271
0.455208
0.471875
0.464583
0.472396
0.483854
0.490625
0.502083
0.504687
0.505208
0.503125
0.496875
0.477083
0.485417
0.473958
0.477604
0.474479
0.464583
0.469271
0.483333
0.503646
0.519271
0.515104
0.509896
0.506250
0.498958
0.484375
0.489063
0.489063
0.493229
0.488542
0.488542
0.483333
0.481250
0.482812
0.500000
0.501042
0.504167
0.531771
0.531771
0.529167
0.533854
0.531250
0.517188
0.521354
0.518229
0.517708
0.496354
0.505729
0.505208
0.506771
0.497396
0.483854
0.476042
0.487500
0.484375
0.490625
0.511458
0.531250
0.543750
0.545312
0.540625
0.536979
0.529167
0.507812
0.513542
0.508333
0.505208
0.502083
0.479687
0.490625
0.491146
0.493750
0.496354
0.499479
0.499479
0.494271
0.489583
0.496875
0.492708
0.483854
0.482812
0.490104
0.482812
0.478646
0.487500
0.490625
0.492188
0.490625
0.489583
0.484375
0.485938
0.475000
0.473958
0.476042
0.475000
0.476562
0.481771
0.485938
0.487500
0.492708
0.498437
0.495312
0.503646
0.507812
0.504167
0.501563
0.485938
0.494792
0.492708
0.489583
0.481250
0.476562
0.483854
0.486458
0.489583
0.483333
0.478646
0.480729
0.472396
0.466146
0.461458
0.460938
0.476562
0.483333
0.503125
0.517708
0.527083
0.521354
0.514583
0.507812
0.502604
0.497396
0.492188
0.476562
0.475000
0.475000
0.471354
0.474479
0.484375
0.496875
0.513542
0.511458
0.515104
0.532292
0.531771
0.500000
0.491146
0.504687
0.512500
0.525521
0.534375
0.536458
0.530208
0.511979
0.501563
0.498958
0.510938
0.499479
0.513542
0.518750
0.515625
0.510938
0.520312
0.514583
0.514583
0.505729
0.505208
0.504167
0.500000
0.500000
0.500000
0.488021
0.510417
0.523958
0.524479
0.511979
0.529687
0.533333
0.546354
0.530208
0.519271
0.522917
0.525000
0.523958
0.524479
0.516146
0.518750
0.506771
0.498958
0.501042
0.495312
0.491146
0.476042
0.485417
0.485938
0.497396
0.516146
0.543750
0.556250
0.551042
0.539583
0.538021
0.545312
0.544792
0.542708
0.533854
0.503646
0.510417
0.510938
0.513021
0.492708
0.502083
0.490625
0.503646
0.517188
0.532813
0.541667
0.542708
0.534375
0.528646
0.520833
0.511979
0.513542
0.503125
0.481250
0.498958
0.479167
0.489063
0.494271
0.500521
0.489583
0.504167
0.513542
0.522396
0.529167
0.531771
0.523438
0.518750
0.512500
0.514583
0.511979
0.509375
0.503125
0.501042
0.492188
0.487500
0.480208
0.479167
0.479167
0.478125
0.475521
0.488021
0.507812
0.539583
0.565625
0.564063
0.551562
0.543229
0.527604
0.508854
0.530208
0.506771
0.523958
0.521354
0.523438
0.515104
0.498958
0.490104
0.497917
0.497917
0.505208
0.510938
0.521354
0.530729
0.528646
0.521875
0.507812
0.526042
0.527083
0.518750
0.502604
0.507812
0.508854
0.513542
0.514583
0.508333
0.507292
0.509896
0.480729
0.473958
0.483333
0.478646
0.488021
0.507292
0.530208
0.541146
0.545833
0.540104
0.541146
0.534896
0.525000
0.520833
0.498437
0.496875
0.490104
0.489063
0.493750
0.493750
0.492188
0.483854
0.485417
0.479687
0.460938
0.471875
0.470313
0.475000
0.487500
0.504167
0.510938
0.510938
0.517708
0.514583
0.517708
0.502604
0.508333
0.491146
0.500000
0.503646
0.502604
0.503125
0.499479
0.494792
0.480208
0.473958
0.478125
0.478646
0.485938
0.487500
0.479687
0.491146
0.497917
0.513542
0.519271
0.520312
0.513021
0.508854
0.500521
0.485417
0.489063
0.486458
0.485938
0.488542
0.481250
0.476562
0.475521
0.477604
0.483333
0.486979
0.489063
0.499479
0.502604
0.511458
0.506771
0.515625
0.507812
0.507292
0.487500
0.491146
0.492188
0.491667
0.491667
0.486979
0.482292
0.482292
0.473958
0.470833
0.457813
0.472396
0.468750
0.492188
0.533333
0.588021
0.612500
0.590104
0.578646
0.562500
0.539062
0.507292
0.512500
0.516667
0.514583
0.522917
0.491146
0.495833
0.493229
0.493229
0.474479
0.486458
0.483854
0.488021
0.485417
0.489063
0.488021
0.493750
0.488021
0.491667
0.486458
0.470833
0.474479
0.479167
0.483854
0.491146
0.469792
0.476562
0.476562
0.481771
0.473958
0.480729
0.484375
0.484896
0.483854
0.488542
0.485938
0.486458
0.486458
0.483333
0.479687
0.474479
0.470313
0.476562
0.483333
0.488021
0.495833
0.501042
0.500000
0.497396
0.503646
0.503125
0.495312
0.498437
0.490625
0.483854
0.485938
0.496875
0.495312
0.481771
0.485938
0.493229
0.502604
0.510417
0.511458
0.507292
0.503646
0.499479
0.497917
0.494792
0.493229
0.488021
0.473438
0.482812
0.490625
0.496354
0.507812
0.498958
0.491146
0.508333
0.510938
0.509896
0.487500
0.490625
0.492188
0.492708
0.501563
0.503125
0.500521
0.477083
0.489583
0.482812
0.487500
0.496875
0.505208
0.508333
0.515104
0.517188
0.516667
0.520833
0.516667
0.491667
0.501042
0.498958
0.476042
0.470313
0.478646
0.478125
0.482292
0.493229
0.498958
0.497917
0.494271
0.494271
0.492188
0.489583
0.488021
0.487500
0.480208
0.472917
0.471875
0.458333
0.455208
0.460417
0.477083
0.500000
0.516146
0.510417
0.498437
0.486979
0.494792
0.492708
0.482292
0.466146
0.475000
0.475000
0.476562
0.478125
0.479687
0.467708
0.470313
0.471354
0.474479
0.480208
0.481250
0.481771
0.488542
0.481250
0.488021
0.491667
0.493750
0.495833
0.484896
0.471875
0.480729
0.463021
0.472396
0.461458
0.466667
0.468229
0.470833
0.472396
0.465625
0.470833
0.471875
0.476042
0.471354
0.478125
0.478646
0.479687
0.473958
0.475521
0.472396
0.454167
0.464583
0.467187
0.468229
0.473958
0.467187
0.464583
0.458333
0.466146
0.467187
0.470833
0.479167
0.484375
0.490625
0.497396
0.503646
0.493750
0.494271
0.506250
0.504167
0.493750
0.485417
0.494792
0.494271
0.494271
0.476562
0.484375
0.489063
0.485417
0.469792
0.475000
0.478646
0.481771
0.488542
0.490104
0.491146
0.483854
0.484896
0.482292
0.469792
0.466146
0.467187
0.467708
0.463542
0.478125
0.481771
0.486979
0.485417
0.485938
0.482812
0.479167
0.469271
0.473958
0.473438
0.473958
0.477083
0.481771
0.480208
0.478646
0.501042
0.504687
0.506250
0.536979
0.547917
0.561979
0.554688
0.532292
0.528646
0.527083
0.496354
0.499479
0.503646
0.508333
0.513021
0.512500
0.511458
0.489583
0.503125
0.496354
0.502604
0.502083
0.504687
0.504167
0.513542
0.528646
0.544271
0.550521
0.548958
0.538542
0.531250
0.526042
